#software version: be99287
#seed = 1548273495
#opt_algo SSMC
#parameters file--------------------------------------------------
#timesteps 100000 
#pulses 1000 
#costtype hyperbolic 
#mag_weight 2.0
#prod_weight 1.0 
#rough_weight 27.0
#time_weight 0.7
#walkers 20 
#concavity 6.0
#alphaType spline 
#alphaPieces 15
#minAlpha 0 
##set max tip angle to Pi/2: 
#maxAlpha 1.570796326 
#TRtype spline 
#TRpieces 15
#minTR 0.01 
#maxTR 0.10 
#-----------------------------------------------------------------
#tissue 0: T1 = 0.800000	T2=0.040000
#tissue 1: T1 = 1.400000	T2=0.060000
#final energy = 69.748149
#pulse	alpha		theta		TR		TE
0	0.033626	0.000000	0.026805	0.002200
1	0.033930	0.000000	0.024366	0.002200
2	0.034274	0.000000	0.021928	0.002200
3	0.034699	0.000000	0.019494	0.002200
4	0.035247	0.000000	0.017064	0.002200
5	0.035958	0.000000	0.014641	0.002200
6	0.036873	0.000000	0.012227	0.002200
7	0.038033	0.000000	0.010000	0.002200
8	0.039477	0.000000	0.010000	0.002200
9	0.041248	0.000000	0.010000	0.002200
10	0.043386	0.000000	0.010000	0.002200
11	0.045931	0.000000	0.010000	0.002200
12	0.048924	0.000000	0.010000	0.002200
13	0.052407	0.000000	0.010000	0.002200
14	0.056419	0.000000	0.010000	0.002200
15	0.061003	0.000000	0.010000	0.002200
16	0.066197	0.000000	0.010000	0.002200
17	0.072044	0.000000	0.010000	0.002200
18	0.078583	0.000000	0.010000	0.002200
19	0.085857	0.000000	0.010000	0.002200
20	0.093904	0.000000	0.010000	0.002200
21	0.102767	0.000000	0.010000	0.002200
22	0.112486	0.000000	0.010000	0.002200
23	0.123102	0.000000	0.010000	0.002200
24	0.134654	0.000000	0.010000	0.002200
25	0.147186	0.000000	0.010000	0.002200
26	0.160736	0.000000	0.010000	0.002200
27	0.175346	0.000000	0.010000	0.002200
28	0.191056	0.000000	0.010000	0.002200
29	0.207908	0.000000	0.010000	0.002200
30	0.225942	0.000000	0.010000	0.002200
31	0.245198	0.000000	0.010000	0.002200
32	0.265718	0.000000	0.010000	0.002200
33	0.287542	0.000000	0.010000	0.002200
34	0.310712	0.000000	0.010000	0.002200
35	0.335267	0.000000	0.010000	0.002200
36	0.361246	0.000000	0.010000	0.002200
37	0.388271	0.000000	0.010000	0.002200
38	0.415099	0.000000	0.010000	0.002200
39	0.440930	0.000000	0.010000	0.002200
40	0.465723	0.000000	0.010000	0.002200
41	0.489493	0.000000	0.010000	0.002200
42	0.512253	0.000000	0.010000	0.002200
43	0.534017	0.000000	0.010000	0.002200
44	0.554799	0.000000	0.010000	0.002200
45	0.574614	0.000000	0.010000	0.002200
46	0.593476	0.000000	0.010000	0.002200
47	0.611398	0.000000	0.010000	0.002200
48	0.628395	0.000000	0.010000	0.002200
49	0.644480	0.000000	0.010000	0.002200
50	0.659668	0.000000	0.010000	0.002200
51	0.673973	0.000000	0.010000	0.002200
52	0.687409	0.000000	0.010000	0.002200
53	0.699989	0.000000	0.010000	0.002200
54	0.711729	0.000000	0.010000	0.002200
55	0.722641	0.000000	0.010000	0.002200
56	0.732740	0.000000	0.010000	0.002200
57	0.742040	0.000000	0.010000	0.002200
58	0.750556	0.000000	0.010000	0.002200
59	0.758301	0.000000	0.010000	0.002200
60	0.765288	0.000000	0.010000	0.002200
61	0.771533	0.000000	0.010000	0.002200
62	0.777050	0.000000	0.010000	0.002200
63	0.781851	0.000000	0.010000	0.002200
64	0.785952	0.000000	0.010000	0.002200
65	0.789367	0.000000	0.010000	0.002200
66	0.792109	0.000000	0.010000	0.002200
67	0.794192	0.000000	0.010000	0.002200
68	0.795631	0.000000	0.010000	0.002200
69	0.796440	0.000000	0.010000	0.002200
70	0.796632	0.000000	0.010000	0.002200
71	0.796222	0.000000	0.010000	0.002200
72	0.795224	0.000000	0.010000	0.002200
73	0.793652	0.000000	0.010000	0.002200
74	0.791519	0.000000	0.010000	0.002200
75	0.788841	0.000000	0.010000	0.002200
76	0.785630	0.000000	0.010000	0.002200
77	0.781902	0.000000	0.010000	0.002200
78	0.777669	0.000000	0.010000	0.002200
79	0.772947	0.000000	0.010000	0.002200
80	0.767749	0.000000	0.010000	0.002200
81	0.762089	0.000000	0.010000	0.002200
82	0.755981	0.000000	0.010000	0.002200
83	0.749439	0.000000	0.010000	0.002200
84	0.742478	0.000000	0.010000	0.002200
85	0.735112	0.000000	0.010000	0.002200
86	0.727353	0.000000	0.010000	0.002200
87	0.719218	0.000000	0.010000	0.002200
88	0.710718	0.000000	0.010000	0.002200
89	0.701870	0.000000	0.010000	0.002200
90	0.692686	0.000000	0.010000	0.002200
91	0.683181	0.000000	0.012624	0.002200
92	0.673368	0.000000	0.017083	0.002200
93	0.663262	0.000000	0.021601	0.002200
94	0.652878	0.000000	0.026112	0.002200
95	0.642228	0.000000	0.030548	0.002200
96	0.631327	0.000000	0.034843	0.002200
97	0.620189	0.000000	0.038930	0.002200
98	0.608828	0.000000	0.042743	0.002200
99	0.597258	0.000000	0.046213	0.002200
100	0.585493	0.000000	0.049275	0.002200
101	0.573547	0.000000	0.051862	0.002200
102	0.561435	0.000000	0.053907	0.002200
103	0.549170	0.000000	0.055352	0.002200
104	0.536766	0.000000	0.056211	0.002200
105	0.524238	0.000000	0.056528	0.002200
106	0.511599	0.000000	0.056348	0.002200
107	0.498863	0.000000	0.055717	0.002200
108	0.486045	0.000000	0.054679	0.002200
109	0.473159	0.000000	0.053280	0.002200
110	0.460218	0.000000	0.051566	0.002200
111	0.447237	0.000000	0.049580	0.002200
112	0.434229	0.000000	0.047369	0.002200
113	0.421210	0.000000	0.044978	0.002200
114	0.408192	0.000000	0.042451	0.002200
115	0.395190	0.000000	0.039834	0.002200
116	0.382218	0.000000	0.037172	0.002200
117	0.369290	0.000000	0.034509	0.002200
118	0.356420	0.000000	0.031889	0.002200
119	0.343622	0.000000	0.029352	0.002200
120	0.330910	0.000000	0.026937	0.002200
121	0.318298	0.000000	0.024686	0.002200
122	0.305800	0.000000	0.022638	0.002200
123	0.293431	0.000000	0.020835	0.002200
124	0.281204	0.000000	0.019316	0.002200
125	0.269133	0.000000	0.018121	0.002200
126	0.257233	0.000000	0.017292	0.002200
127	0.245517	0.000000	0.016869	0.002200
128	0.234000	0.000000	0.016891	0.002200
129	0.222695	0.000000	0.017399	0.002200
130	0.211617	0.000000	0.018435	0.002200
131	0.200779	0.000000	0.020037	0.002200
132	0.190196	0.000000	0.022247	0.002200
133	0.179882	0.000000	0.025104	0.002200
134	0.169851	0.000000	0.028649	0.002200
135	0.160116	0.000000	0.032923	0.002200
136	0.150693	0.000000	0.037966	0.002200
137	0.141594	0.000000	0.043819	0.002200
138	0.132834	0.000000	0.050520	0.002200
139	0.124427	0.000000	0.058112	0.002200
140	0.116388	0.000000	0.066634	0.002200
141	0.108729	0.000000	0.076127	0.002200
142	0.101466	0.000000	0.086631	0.002200
143	0.094612	0.000000	0.098162	0.002200
144	0.088181	0.000000	0.110461	0.002200
145	0.082187	0.000000	0.123102	0.002200
146	0.076645	0.000000	0.135654	0.002200
147	0.071569	0.000000	0.147687	0.002200
148	0.066971	0.000000	0.158771	0.002200
149	0.062868	0.000000	0.168476	0.002200
150	0.059271	0.000000	0.176372	0.002200
151	0.056197	0.000000	0.182028	0.002200
152	0.053658	0.000000	0.185014	0.002200
153	0.051669	0.000000	0.184901	0.002200
154	0.050243	0.000000	0.181258	0.002200
155	0.049395	0.000000	0.173655	0.002200
156	0.049140	0.000000	0.161662	0.002200
157	0.049490	0.000000	0.144848	0.002200
158	0.050460	0.000000	0.122784	0.002200
159	0.052064	0.000000	0.095040	0.002200
160	0.054316	0.000000	0.061432	0.002200
161	0.057230	0.000000	0.025214	0.002200
162	0.060820	0.000000	0.010000	0.002200
163	0.065101	0.000000	0.010000	0.002200
164	0.070086	0.000000	0.010000	0.002200
165	0.075789	0.000000	0.010000	0.002200
166	0.082224	0.000000	0.010000	0.002200
167	0.089406	0.000000	0.010000	0.002200
168	0.097348	0.000000	0.010000	0.002200
169	0.106065	0.000000	0.010000	0.002200
170	0.115570	0.000000	0.010000	0.002200
171	0.125878	0.000000	0.010000	0.002200
172	0.137002	0.000000	0.010000	0.002200
173	0.148957	0.000000	0.010000	0.002200
174	0.161757	0.000000	0.010000	0.002200
175	0.175416	0.000000	0.010000	0.002200
176	0.189947	0.000000	0.010000	0.002200
177	0.205366	0.000000	0.010000	0.002200
178	0.221685	0.000000	0.010000	0.002200
179	0.238919	0.000000	0.010000	0.002200
180	0.257082	0.000000	0.010000	0.002200
181	0.276189	0.000000	0.010000	0.002200
182	0.296252	0.000000	0.010000	0.002200
183	0.317287	0.000000	0.010000	0.002200
184	0.339306	0.000000	0.010000	0.002200
185	0.362326	0.000000	0.010000	0.002200
186	0.386358	0.000000	0.010000	0.002200
187	0.411418	0.000000	0.010000	0.002200
188	0.437519	0.000000	0.010000	0.002200
189	0.464675	0.000000	0.010000	0.002200
190	0.492901	0.000000	0.010000	0.002200
191	0.522211	0.000000	0.010000	0.002200
192	0.552618	0.000000	0.010000	0.002200
193	0.584137	0.000000	0.010000	0.002200
194	0.616782	0.000000	0.010000	0.002200
195	0.650566	0.000000	0.010000	0.002200
196	0.685504	0.000000	0.010000	0.002200
197	0.721610	0.000000	0.010000	0.002200
198	0.758876	0.000000	0.010000	0.002200
199	0.797167	0.000000	0.010000	0.002200
200	0.836308	0.000000	0.010000	0.002200
201	0.876121	0.000000	0.010000	0.002200
202	0.916432	0.000000	0.010000	0.002200
203	0.957063	0.000000	0.010000	0.002200
204	0.997838	0.000000	0.010000	0.002200
205	1.038580	0.000000	0.010000	0.002200
206	1.079113	0.000000	0.010000	0.002200
207	1.119261	0.000000	0.010000	0.002200
208	1.158847	0.000000	0.010000	0.002200
209	1.197695	0.000000	0.010000	0.002200
210	1.235628	0.000000	0.010000	0.002200
211	1.272471	0.000000	0.010000	0.002200
212	1.308045	0.000000	0.010000	0.002200
213	1.342177	0.000000	0.010000	0.002200
214	1.374687	0.000000	0.010000	0.002200
215	1.405402	0.000000	0.010000	0.002200
216	1.434143	0.000000	0.010000	0.002200
217	1.460734	0.000000	0.010000	0.002200
218	1.485000	0.000000	0.010000	0.002200
219	1.506764	0.000000	0.010000	0.002200
220	1.525848	0.000000	0.010000	0.002200
221	1.542078	0.000000	0.010000	0.002200
222	1.555276	0.000000	0.010000	0.002200
223	1.565266	0.000000	0.010000	0.002200
224	1.570796	0.000000	0.010000	0.002200
225	1.570796	0.000000	0.010000	0.002200
226	1.570796	0.000000	0.010000	0.002200
227	1.570796	0.000000	0.010000	0.002200
228	1.564896	0.000000	0.010000	0.002200
229	1.555494	0.000000	0.010000	0.002200
230	1.543316	0.000000	0.010000	0.002200
231	1.528506	0.000000	0.010000	0.002200
232	1.511209	0.000000	0.010000	0.002200
233	1.491567	0.000000	0.010000	0.002200
234	1.469725	0.000000	0.010000	0.002200
235	1.445827	0.000000	0.010000	0.002200
236	1.420016	0.000000	0.010000	0.002200
237	1.392436	0.000000	0.010000	0.002200
238	1.363232	0.000000	0.010000	0.002200
239	1.332546	0.000000	0.010000	0.002200
240	1.300523	0.000000	0.010000	0.002200
241	1.267306	0.000000	0.010000	0.002200
242	1.233039	0.000000	0.010000	0.002200
243	1.197867	0.000000	0.010000	0.002200
244	1.161933	0.000000	0.010000	0.002200
245	1.125380	0.000000	0.010000	0.002200
246	1.088353	0.000000	0.010000	0.002200
247	1.050995	0.000000	0.010000	0.002200
248	1.013451	0.000000	0.010000	0.002200
249	0.975864	0.000000	0.010000	0.002200
250	0.938377	0.000000	0.010000	0.002200
251	0.901136	0.000000	0.010000	0.002200
252	0.864283	0.000000	0.010000	0.002200
253	0.827962	0.000000	0.013133	0.002200
254	0.792317	0.000000	0.018362	0.002200
255	0.757493	0.000000	0.023039	0.002200
256	0.723632	0.000000	0.027144	0.002200
257	0.690879	0.000000	0.030683	0.002200
258	0.659377	0.000000	0.033682	0.002200
259	0.629245	0.000000	0.036170	0.002200
260	0.600484	0.000000	0.038176	0.002200
261	0.573061	0.000000	0.039728	0.002200
262	0.546944	0.000000	0.040853	0.002200
263	0.522099	0.000000	0.041580	0.002200
264	0.498496	0.000000	0.041937	0.002200
265	0.476101	0.000000	0.041953	0.002200
266	0.454881	0.000000	0.041655	0.002200
267	0.434804	0.000000	0.041071	0.002200
268	0.415838	0.000000	0.040231	0.002200
269	0.397951	0.000000	0.039161	0.002200
270	0.381108	0.000000	0.037891	0.002200
271	0.365279	0.000000	0.036448	0.002200
272	0.350431	0.000000	0.034861	0.002200
273	0.336530	0.000000	0.033157	0.002200
274	0.323545	0.000000	0.031365	0.002200
275	0.311444	0.000000	0.029513	0.002200
276	0.300192	0.000000	0.027630	0.002200
277	0.289759	0.000000	0.025743	0.002200
278	0.280111	0.000000	0.023875	0.002200
279	0.271216	0.000000	0.022030	0.002200
280	0.263042	0.000000	0.020208	0.002200
281	0.255556	0.000000	0.018409	0.002200
282	0.248725	0.000000	0.016633	0.002200
283	0.242517	0.000000	0.014879	0.002200
284	0.236900	0.000000	0.013147	0.002200
285	0.231840	0.000000	0.011438	0.002200
286	0.227306	0.000000	0.010000	0.002200
287	0.223265	0.000000	0.010000	0.002200
288	0.219684	0.000000	0.010000	0.002200
289	0.216531	0.000000	0.010000	0.002200
290	0.213774	0.000000	0.010000	0.002200
291	0.211379	0.000000	0.010000	0.002200
292	0.209315	0.000000	0.010000	0.002200
293	0.207549	0.000000	0.010000	0.002200
294	0.206047	0.000000	0.010000	0.002200
295	0.204779	0.000000	0.010000	0.002200
296	0.203711	0.000000	0.010000	0.002200
297	0.202811	0.000000	0.010000	0.002200
298	0.202046	0.000000	0.010000	0.002200
299	0.201384	0.000000	0.010000	0.002200
300	0.200792	0.000000	0.010000	0.002200
301	0.200238	0.000000	0.010000	0.002200
302	0.199692	0.000000	0.010000	0.002200
303	0.199144	0.000000	0.010000	0.002200
304	0.198594	0.000000	0.010000	0.002200
305	0.198041	0.000000	0.010000	0.002200
306	0.197487	0.000000	0.010000	0.002200
307	0.196931	0.000000	0.010000	0.002200
308	0.196373	0.000000	0.010000	0.002200
309	0.195814	0.000000	0.010000	0.002200
310	0.195252	0.000000	0.010000	0.002200
311	0.194689	0.000000	0.010000	0.002200
312	0.194124	0.000000	0.010000	0.002200
313	0.193558	0.000000	0.010000	0.002200
314	0.192990	0.000000	0.010000	0.002200
315	0.192420	0.000000	0.010000	0.002200
316	0.191848	0.000000	0.010000	0.002200
317	0.191276	0.000000	0.010000	0.002200
318	0.190701	0.000000	0.010000	0.002200
319	0.190125	0.000000	0.010000	0.002200
320	0.189548	0.000000	0.010000	0.002200
321	0.188970	0.000000	0.010000	0.002200
322	0.188390	0.000000	0.010000	0.002200
323	0.187808	0.000000	0.010000	0.002200
324	0.187226	0.000000	0.010000	0.002200
325	0.186642	0.000000	0.010000	0.002200
326	0.186057	0.000000	0.010000	0.002200
327	0.185471	0.000000	0.010000	0.002200
328	0.184884	0.000000	0.010000	0.002200
329	0.184295	0.000000	0.010000	0.002200
330	0.183706	0.000000	0.010000	0.002200
331	0.183115	0.000000	0.010000	0.002200
332	0.182524	0.000000	0.010000	0.002200
333	0.181932	0.000000	0.010000	0.002200
334	0.181338	0.000000	0.010000	0.002200
335	0.180744	0.000000	0.010000	0.002200
336	0.180149	0.000000	0.010000	0.002200
337	0.179553	0.000000	0.010000	0.002200
338	0.178957	0.000000	0.010000	0.002200
339	0.178359	0.000000	0.010000	0.002200
340	0.177761	0.000000	0.010000	0.002200
341	0.177163	0.000000	0.010000	0.002200
342	0.176563	0.000000	0.010000	0.002200
343	0.175963	0.000000	0.010000	0.002200
344	0.175363	0.000000	0.010000	0.002200
345	0.174762	0.000000	0.010000	0.002200
346	0.174160	0.000000	0.010000	0.002200
347	0.173558	0.000000	0.010000	0.002200
348	0.172956	0.000000	0.010000	0.002200
349	0.172353	0.000000	0.010000	0.002200
350	0.171750	0.000000	0.010000	0.002200
351	0.171147	0.000000	0.010000	0.002200
352	0.170543	0.000000	0.010000	0.002200
353	0.169939	0.000000	0.010000	0.002200
354	0.169335	0.000000	0.010000	0.002200
355	0.168731	0.000000	0.010000	0.002200
356	0.168126	0.000000	0.010000	0.002200
357	0.167522	0.000000	0.010000	0.002200
358	0.166917	0.000000	0.010000	0.002200
359	0.166313	0.000000	0.010000	0.002200
360	0.165708	0.000000	0.010000	0.002200
361	0.165104	0.000000	0.010000	0.002200
362	0.164499	0.000000	0.010000	0.002200
363	0.163895	0.000000	0.010000	0.002200
364	0.163291	0.000000	0.010000	0.002200
365	0.162687	0.000000	0.010000	0.002200
366	0.162083	0.000000	0.010000	0.002200
367	0.161480	0.000000	0.010000	0.002200
368	0.160876	0.000000	0.010000	0.002200
369	0.160274	0.000000	0.010000	0.002200
370	0.159671	0.000000	0.010000	0.002200
371	0.159069	0.000000	0.010000	0.002200
372	0.158468	0.000000	0.010000	0.002200
373	0.157866	0.000000	0.010000	0.002200
374	0.157266	0.000000	0.010000	0.002200
375	0.156666	0.000000	0.010000	0.002200
376	0.156066	0.000000	0.010000	0.002200
377	0.155468	0.000000	0.010000	0.002200
378	0.154869	0.000000	0.010000	0.002200
379	0.154272	0.000000	0.010000	0.002200
380	0.153675	0.000000	0.010000	0.002200
381	0.153079	0.000000	0.010000	0.002200
382	0.152484	0.000000	0.010000	0.002200
383	0.151890	0.000000	0.010000	0.002200
384	0.151296	0.000000	0.010000	0.002200
385	0.150704	0.000000	0.010000	0.002200
386	0.150112	0.000000	0.010000	0.002200
387	0.149521	0.000000	0.010000	0.002200
388	0.148932	0.000000	0.010000	0.002200
389	0.148343	0.000000	0.010000	0.002200
390	0.147756	0.000000	0.010000	0.002200
391	0.147170	0.000000	0.010000	0.002200
392	0.146584	0.000000	0.010000	0.002200
393	0.146000	0.000000	0.010000	0.002200
394	0.145418	0.000000	0.010000	0.002200
395	0.144836	0.000000	0.010000	0.002200
396	0.144256	0.000000	0.010000	0.002200
397	0.143677	0.000000	0.010000	0.002200
398	0.143100	0.000000	0.010000	0.002200
399	0.142524	0.000000	0.010000	0.002200
400	0.141949	0.000000	0.010000	0.002200
401	0.141376	0.000000	0.010000	0.002200
402	0.140804	0.000000	0.010000	0.002200
403	0.140234	0.000000	0.010000	0.002200
404	0.139666	0.000000	0.010000	0.002200
405	0.139099	0.000000	0.010000	0.002200
406	0.138534	0.000000	0.010000	0.002200
407	0.137970	0.000000	0.010000	0.002200
408	0.137409	0.000000	0.010000	0.002200
409	0.136849	0.000000	0.010000	0.002200
410	0.136291	0.000000	0.010000	0.002200
411	0.135734	0.000000	0.010000	0.002200
412	0.135180	0.000000	0.010000	0.002200
413	0.134627	0.000000	0.010000	0.002200
414	0.134077	0.000000	0.010000	0.002200
415	0.133528	0.000000	0.010000	0.002200
416	0.132982	0.000000	0.010000	0.002200
417	0.132437	0.000000	0.010000	0.002200
418	0.131895	0.000000	0.010000	0.002200
419	0.131354	0.000000	0.010000	0.002200
420	0.130816	0.000000	0.010000	0.002200
421	0.130280	0.000000	0.010000	0.002200
422	0.129747	0.000000	0.010000	0.002200
423	0.129215	0.000000	0.010000	0.002200
424	0.128686	0.000000	0.010000	0.002200
425	0.128159	0.000000	0.010000	0.002200
426	0.127635	0.000000	0.010000	0.002200
427	0.127113	0.000000	0.010000	0.002200
428	0.126593	0.000000	0.010000	0.002200
429	0.126076	0.000000	0.010000	0.002200
430	0.125562	0.000000	0.010000	0.002200
431	0.125050	0.000000	0.010000	0.002200
432	0.124541	0.000000	0.010000	0.002200
433	0.124034	0.000000	0.010000	0.002200
434	0.123530	0.000000	0.010000	0.002200
435	0.123028	0.000000	0.010000	0.002200
436	0.122530	0.000000	0.010000	0.002200
437	0.122034	0.000000	0.010000	0.002200
438	0.121541	0.000000	0.010000	0.002200
439	0.121051	0.000000	0.010000	0.002200
440	0.120563	0.000000	0.010000	0.002200
441	0.120079	0.000000	0.010000	0.002200
442	0.119597	0.000000	0.010000	0.002200
443	0.119119	0.000000	0.010000	0.002200
444	0.118643	0.000000	0.010000	0.002200
445	0.118171	0.000000	0.010000	0.002200
446	0.117702	0.000000	0.010000	0.002200
447	0.117236	0.000000	0.010000	0.002200
448	0.116773	0.000000	0.010000	0.002200
449	0.116313	0.000000	0.010000	0.002200
450	0.115856	0.000000	0.010000	0.002200
451	0.115403	0.000000	0.010000	0.002200
452	0.114953	0.000000	0.010000	0.002200
453	0.114506	0.000000	0.010000	0.002200
454	0.114063	0.000000	0.010000	0.002200
455	0.113623	0.000000	0.010000	0.002200
456	0.113187	0.000000	0.010000	0.002200
457	0.112754	0.000000	0.010000	0.002200
458	0.112325	0.000000	0.010000	0.002200
459	0.111899	0.000000	0.010000	0.002200
460	0.111477	0.000000	0.010000	0.002200
461	0.111058	0.000000	0.010000	0.002200
462	0.110643	0.000000	0.010000	0.002200
463	0.110232	0.000000	0.010000	0.002200
464	0.109825	0.000000	0.010000	0.002200
465	0.109421	0.000000	0.010000	0.002200
466	0.109021	0.000000	0.010000	0.002200
467	0.108625	0.000000	0.010000	0.002200
468	0.108233	0.000000	0.010000	0.002200
469	0.107845	0.000000	0.010000	0.002200
470	0.107460	0.000000	0.010000	0.002200
471	0.107080	0.000000	0.010000	0.002200
472	0.106704	0.000000	0.010000	0.002200
473	0.106332	0.000000	0.010000	0.002200
474	0.105963	0.000000	0.010000	0.002200
475	0.105599	0.000000	0.010000	0.002200
476	0.105240	0.000000	0.010000	0.002200
477	0.104884	0.000000	0.010000	0.002200
478	0.104533	0.000000	0.010000	0.002200
479	0.104186	0.000000	0.010000	0.002200
480	0.103843	0.000000	0.010000	0.002200
481	0.103505	0.000000	0.010000	0.002200
482	0.103170	0.000000	0.010000	0.002200
483	0.102841	0.000000	0.010000	0.002200
484	0.102516	0.000000	0.010000	0.002200
485	0.102195	0.000000	0.010000	0.002200
